Radius (cm)		Pressure (dyne/cm^2)		Mass (M☉)		Density (g/cm^3)
4.00000000e+03		4.43811058e+33		6.03185789e+25		2.25000000e+14		 
8.00000000e+03		4.43781157e+33		4.97622674e+26		2.24995305e+14		 
1.20000000e+04		4.43723603e+33		1.65870407e+27		2.24986267e+14		 
1.60000000e+04		4.43640264e+33		3.90536136e+27		2.24973180e+14		 
2.00000000e+04		4.43531648e+33		7.59928199e+27		2.24956124e+14		 
2.40000000e+04		4.43397984e+33		1.31020047e+28		2.24935135e+14		 
2.80000000e+04		4.43239403e+33		2.07748821e+28		2.24910233e+14		 
3.20000000e+04		4.43055992e+33		3.09790431e+28		2.24881433e+14		 
3.60000000e+04		4.42847812e+33		4.40753561e+28		2.24848742e+14		 
4.00000000e+04		4.42614914e+33		6.04243912e+28		2.24812170e+14		 
4.40000000e+04		4.42357341e+33		8.03863834e+28		2.24771724e+14		 
4.80000000e+04		4.42075130e+33		1.04321195e+29		2.24727408e+14		 
5.20000000e+04		4.41768319e+33		1.32588280e+29		2.24679230e+14		 
5.60000000e+04		4.41436941e+33		1.65546645e+29		2.24627194e+14		 
6.00000000e+04		4.41081034e+33		2.03554815e+29		2.24571306e+14		 
6.40000000e+04		4.40700631e+33		2.46970794e+29		2.24511572e+14		 
6.80000000e+04		4.40295770e+33		2.96152029e+29		2.24447997e+14		 
7.20000000e+04		4.39866486e+33		3.51455376e+29		2.24380586e+14		 
7.60000000e+04		4.39412819e+33		4.13237062e+29		2.24309347e+14		 
8.00000000e+04		4.38934807e+33		4.81852646e+29		2.24234285e+14		 
8.40000000e+04		4.38432493e+33		5.57656988e+29		2.24155407e+14		 
8.80000000e+04		4.37905918e+33		6.41004208e+29		2.24072720e+14		 
9.20000000e+04		4.37355126e+33		7.32247655e+29		2.23986229e+14		 
9.60000000e+04		4.36780164e+33		8.31739867e+29		2.23895943e+14		 
1.00000000e+05		4.36181078e+33		9.39832538e+29		2.23801869e+14		 
1.04000000e+05		4.35557918e+33		1.05687648e+30		2.23704015e+14		 
1.08000000e+05		4.34910734e+33		1.18322160e+30		2.23602388e+14		 
1.12000000e+05		4.34239578e+33		1.31921684e+30		2.23496997e+14		 
1.16000000e+05		4.33544506e+33		1.46521016e+30		2.23387850e+14		 
1.20000000e+05		4.32825573e+33		1.62154851e+30		2.23274956e+14		 
1.24000000e+05		4.32082836e+33		1.78857778e+30		2.23158325e+14		 
1.28000000e+05		4.31316356e+33		1.96664277e+30		2.23037965e+14		 
1.32000000e+05		4.30526193e+33		2.15608716e+30		2.22913886e+14		 
1.36000000e+05		4.29712410e+33		2.35725347e+30		2.22786098e+14		 
1.40000000e+05		4.28875071e+33		2.57048304e+30		2.22654612e+14		 
1.44000000e+05		4.28014244e+33		2.79611599e+30		2.22519436e+14		 
1.48000000e+05		4.27129997e+33		3.03449116e+30		2.22380584e+14		 
1.52000000e+05		4.26222399e+33		3.28594612e+30		2.22238064e+14		 
1.56000000e+05		4.25291522e+33		3.55081712e+30		2.22091889e+14		 
1.60000000e+05		4.24337439e+33		3.82943904e+30		2.21942070e+14		 
1.64000000e+05		4.23360225e+33		4.12214541e+30		2.21788619e+14		 
1.68000000e+05		4.22359957e+33		4.42926830e+30		2.21631547e+14		 
1.72000000e+05		4.21336714e+33		4.75113835e+30		2.21470868e+14		 
1.76000000e+05		4.20290575e+33		5.08808473e+30		2.21306593e+14		 
1.80000000e+05		4.19221622e+33		5.44043508e+30		2.21138736e+14		 
1.84000000e+05		4.18129939e+33		5.80851550e+30		2.20967310e+14		 
1.88000000e+05		4.17015610e+33		6.19265055e+30		2.20792328e+14		 
1.92000000e+05		4.15878722e+33		6.59316314e+30		2.20613803e+14		 
1.96000000e+05		4.14719363e+33		7.01037458e+30		2.20431750e+14		 
2.00000000e+05		4.13537624e+33		7.44460450e+30		2.20246182e+14		 
2.04000000e+05		4.12333595e+33		7.89617086e+30		2.20057114e+14		 
2.08000000e+05		4.11107370e+33		8.36538989e+30		2.19864561e+14		 
2.12000000e+05		4.09859043e+33		8.85257606e+30		2.19668537e+14		 
2.16000000e+05		4.08588710e+33		9.35804208e+30		2.19469057e+14		 
2.20000000e+05		4.07296469e+33		9.88209886e+30		2.19266137e+14		 
2.24000000e+05		4.05982419e+33		1.04250555e+31		2.19059793e+14		 
2.28000000e+05		4.04646661e+33		1.09872191e+31		2.18850040e+14		 
2.32000000e+05		4.03289297e+33		1.15688951e+31		2.18636893e+14		 
2.36000000e+05		4.01910430e+33		1.21703869e+31		2.18420371e+14		 
2.40000000e+05		4.00510165e+33		1.27919960e+31		2.18200488e+14		 
2.44000000e+05		3.99088609e+33		1.34340219e+31		2.17977262e+14		 
2.48000000e+05		3.97645870e+33		1.40967620e+31		2.17750710e+14		 
2.52000000e+05		3.96182057e+33		1.47805120e+31		2.17520848e+14		 
2.56000000e+05		3.94697330e+33		1.54855410e+31		2.17267072e+14		 
2.60000000e+05		3.93191979e+33		1.62120558e+31		2.16992508e+14		 
2.64000000e+05		3.91666175e+33		1.69603180e+31		2.16714213e+14		 
2.68000000e+05		3.90120056e+33		1.77306051e+31		2.16432214e+14		 
2.72000000e+05		3.88553760e+33		1.85231919e+31		2.16146534e+14		 
2.76000000e+05		3.86967426e+33		1.93383508e+31		2.15857199e+14		 
2.80000000e+05		3.85361193e+33		2.01763518e+31		2.15564235e+14		 
2.84000000e+05		3.83735203e+33		2.10374622e+31		2.15267667e+14		 
2.88000000e+05		3.82089599e+33		2.19219470e+31		2.14967522e+14		 
2.92000000e+05		3.80424525e+33		2.28300685e+31		2.14663826e+14		 
2.96000000e+05		3.78740125e+33		2.37620864e+31		2.14356604e+14		 
3.00000000e+05		3.77036545e+33		2.47182578e+31		2.14045885e+14		 
3.04000000e+05		3.75313932e+33		2.56988373e+31		2.13731694e+14		 
3.08000000e+05		3.73572434e+33		2.67040767e+31		2.13414059e+14		 
3.12000000e+05		3.71812201e+33		2.77342252e+31		2.13093006e+14		 
3.16000000e+05		3.70033383e+33		2.87895294e+31		2.12768564e+14		 
3.20000000e+05		3.68236130e+33		2.98702332e+31		2.12440759e+14		 
3.24000000e+05		3.66420596e+33		3.09765775e+31		2.12109620e+14		 
3.28000000e+05		3.64586933e+33		3.21088008e+31		2.11775175e+14		 
3.32000000e+05		3.62735296e+33		3.32671388e+31		2.11437451e+14		 
3.36000000e+05		3.60865840e+33		3.44518243e+31		2.11096477e+14		 
3.40000000e+05		3.58978720e+33		3.56630873e+31		2.10752281e+14		 
3.44000000e+05		3.57074095e+33		3.69011552e+31		2.10404893e+14		 
3.48000000e+05		3.55152122e+33		3.81662524e+31		2.10054340e+14		 
3.52000000e+05		3.53212959e+33		3.94586006e+31		2.09700652e+14		 
3.56000000e+05		3.51256767e+33		4.07784186e+31		2.09343858e+14		 
3.60000000e+05		3.49283705e+33		4.21259224e+31		2.08983988e+14		 
3.64000000e+05		3.47293935e+33		4.35013250e+31		2.08621069e+14		 
3.68000000e+05		3.45287620e+33		4.49048367e+31		2.08255133e+14		 
3.72000000e+05		3.43264921e+33		4.63366648e+31		2.07886209e+14		 
3.76000000e+05		3.41226002e+33		4.77970137e+31		2.07514327e+14		 
3.80000000e+05		3.39171028e+33		4.92860850e+31		2.07139516e+14		 
3.84000000e+05		3.37100163e+33		5.08040773e+31		2.06761806e+14		 
3.88000000e+05		3.35013572e+33		5.23511863e+31		2.06381229e+14		 
3.92000000e+05		3.32911423e+33		5.39276046e+31		2.05997814e+14		 
3.96000000e+05		3.30793881e+33		5.55335223e+31		2.05611591e+14		 
4.00000000e+05		3.28661115e+33		5.71691260e+31		2.05222591e+14		 
4.04000000e+05		3.26513291e+33		5.88345997e+31		2.04830845e+14		 
4.08000000e+05		3.24350579e+33		6.05301244e+31		2.04436384e+14		 
4.12000000e+05		3.22173146e+33		6.22558780e+31		2.04039237e+14		 
4.16000000e+05		3.19981164e+33		6.40120356e+31		2.03639437e+14		 
4.20000000e+05		3.17774801e+33		6.57987691e+31		2.03237014e+14		 
4.24000000e+05		3.15554229e+33		6.76162476e+31		2.02831999e+14		 
4.28000000e+05		3.13319616e+33		6.94646372e+31		2.02424424e+14		 
4.32000000e+05		3.11071136e+33		7.13441009e+31		2.02014319e+14		 
4.36000000e+05		3.08808959e+33		7.32547988e+31		2.01601716e+14		 
4.40000000e+05		3.06533256e+33		7.51968880e+31		2.01186646e+14		 
4.44000000e+05		3.04244201e+33		7.71705226e+31		2.00769140e+14		 
4.48000000e+05		3.01942303e+33		7.91755552e+31		2.00284926e+14		 
4.52000000e+05		2.99628262e+33		8.12116710e+31		1.99783400e+14		 
4.56000000e+05		2.97302345e+33		8.32789354e+31		1.99279300e+14		 
4.60000000e+05		2.94964763e+33		8.53774587e+31		1.98772673e+14		 
4.64000000e+05		2.92615727e+33		8.75073481e+31		1.98263562e+14		 
4.68000000e+05		2.90255446e+33		8.96687073e+31		1.97752015e+14		 
4.72000000e+05		2.87884131e+33		9.18616368e+31		1.97238076e+14		 
4.76000000e+05		2.85501991e+33		9.40862337e+31		1.96721791e+14		 
4.80000000e+05		2.83109233e+33		9.63425917e+31		1.96203205e+14		 
4.84000000e+05		2.80706067e+33		9.86308013e+31		1.95682363e+14		 
4.88000000e+05		2.78292700e+33		1.00950950e+32		1.95159310e+14		 
4.92000000e+05		2.75869339e+33		1.03303121e+32		1.94634091e+14		 
4.96000000e+05		2.73436190e+33		1.05687396e+32		1.94106751e+14		 
5.00000000e+05		2.70993460e+33		1.08103851e+32		1.93577334e+14		 
5.04000000e+05		2.68541353e+33		1.10552561e+32		1.93045885e+14		 
5.08000000e+05		2.66080074e+33		1.13033597e+32		1.92512448e+14		 
5.12000000e+05		2.63609827e+33		1.15547027e+32		1.91977068e+14		 
5.16000000e+05		2.61130816e+33		1.18092914e+32		1.91439787e+14		 
5.20000000e+05		2.58643241e+33		1.20671321e+32		1.90900652e+14		 
5.24000000e+05		2.56147307e+33		1.23282306e+32		1.90359704e+14		 
5.28000000e+05		2.53643213e+33		1.25925923e+32		1.89816988e+14		 
5.32000000e+05		2.51131160e+33		1.28602224e+32		1.89272546e+14		 
5.36000000e+05		2.48611348e+33		1.31311258e+32		1.88726423e+14		 
5.40000000e+05		2.46083974e+33		1.34053072e+32		1.88178662e+14		 
5.44000000e+05		2.43549238e+33		1.36827707e+32		1.87629304e+14		 
5.48000000e+05		2.41007336e+33		1.39635202e+32		1.87078394e+14		 
5.52000000e+05		2.38458464e+33		1.42475596e+32		1.86525973e+14		 
5.56000000e+05		2.35902817e+33		1.45348920e+32		1.85972083e+14		 
5.60000000e+05		2.33340591e+33		1.48255205e+32		1.85416768e+14		 
5.64000000e+05		2.30771979e+33		1.51194480e+32		1.84860069e+14		 
5.68000000e+05		2.28197172e+33		1.54166767e+32		1.84302027e+14		 
5.72000000e+05		2.25616585e+33		1.57171827e+32		1.83694740e+14		 
5.76000000e+05		2.23031478e+33		1.60208414e+32		1.83014519e+14		 
5.80000000e+05		2.20442473e+33		1.63276038e+32		1.82333272e+14		 
5.84000000e+05		2.17849802e+33		1.66374660e+32		1.81651060e+14		 
5.88000000e+05		2.15253697e+33		1.69504237e+32		1.80967945e+14		 
5.92000000e+05		2.12654387e+33		1.72664724e+32		1.80283987e+14		 
5.96000000e+05		2.10052099e+33		1.75856072e+32		1.79599245e+14		 
6.00000000e+05		2.07447057e+33		1.79078231e+32		1.78913779e+14		 
6.04000000e+05		2.04839484e+33		1.82331147e+32		1.78227646e+14		 
6.08000000e+05		2.02229599e+33		1.85614763e+32		1.77540905e+14		 
6.12000000e+05		1.99617620e+33		1.88929020e+32		1.76853613e+14		 
6.16000000e+05		1.97003762e+33		1.92273856e+32		1.76165827e+14		 
6.20000000e+05		1.94388237e+33		1.95649206e+32		1.75477602e+14		 
6.24000000e+05		1.91771257e+33		1.99055003e+32		1.74788994e+14		 
6.28000000e+05		1.89153030e+33		2.02491178e+32		1.74100058e+14		 
6.32000000e+05		1.86533761e+33		2.05957659e+32		1.73410848e+14		 
6.36000000e+05		1.83913654e+33		2.09454370e+32		1.72721417e+14		 
6.40000000e+05		1.81292910e+33		2.12981235e+32		1.72031819e+14		 
6.44000000e+05		1.78671729e+33		2.16538174e+32		1.71342106e+14		 
6.48000000e+05		1.76050307e+33		2.20125106e+32		1.70652329e+14		 
6.52000000e+05		1.73428838e+33		2.23741946e+32		1.69962540e+14		 
6.56000000e+05		1.70807514e+33		2.27388608e+32		1.69272789e+14		 
6.60000000e+05		1.68186525e+33		2.31065003e+32		1.68583126e+14		 
6.64000000e+05		1.65566057e+33		2.34771041e+32		1.67893601e+14		 
6.68000000e+05		1.62946346e+33		2.38506557e+32		1.67194795e+14		 
6.72000000e+05		1.60328949e+33		2.42269459e+32		1.66335913e+14		 
6.76000000e+05		1.57715310e+33		2.46057827e+32		1.65478265e+14		 
6.80000000e+05		1.55105651e+33		2.49871492e+32		1.64621923e+14		 
6.84000000e+05		1.52500190e+33		2.53710283e+32		1.63766958e+14		 
6.88000000e+05		1.49899140e+33		2.57574029e+32		1.62913440e+14		 
6.92000000e+05		1.47302710e+33		2.61462556e+32		1.62061439e+14		 
6.96000000e+05		1.44711106e+33		2.65375691e+32		1.61211021e+14		 
7.00000000e+05		1.42124528e+33		2.69313257e+32		1.60362252e+14		 
7.04000000e+05		1.39543171e+33		2.73275078e+32		1.59515197e+14		 
7.08000000e+05		1.36967229e+33		2.77260977e+32		1.58669919e+14		 
7.12000000e+05		1.34396888e+33		2.81270774e+32		1.57826478e+14		 
7.16000000e+05		1.31832332e+33		2.85304290e+32		1.56984936e+14		 
7.20000000e+05		1.29273741e+33		2.89361344e+32		1.56145351e+14		 
7.24000000e+05		1.26721290e+33		2.93441755e+32		1.55307781e+14		 
7.28000000e+05		1.24175151e+33		2.97545341e+32		1.54472282e+14		 
7.32000000e+05		1.21635490e+33		3.01671917e+32		1.53638909e+14		 
7.36000000e+05		1.19102472e+33		3.05821301e+32		1.52807716e+14		 
7.40000000e+05		1.16576255e+33		3.09993309e+32		1.51978755e+14		 
7.44000000e+05		1.14056996e+33		3.14187754e+32		1.51152076e+14		 
7.48000000e+05		1.11545153e+33		3.18403930e+32		1.50272422e+14		 
7.52000000e+05		1.09043170e+33		3.22637745e+32		1.49212669e+14		 
7.56000000e+05		1.06552592e+33		3.26886625e+32		1.48157747e+14		 
7.60000000e+05		1.04073588e+33		3.31150310e+32		1.47107727e+14		 
7.64000000e+05		1.01606323e+33		3.35428539e+32		1.46062679e+14		 
7.68000000e+05		9.91509510e+32		3.39721053e+32		1.45022669e+14		 
7.72000000e+05		9.67076236e+32		3.44027596e+32		1.43987761e+14		 
7.76000000e+05		9.42764833e+32		3.48347913e+32		1.42958014e+14		 
7.80000000e+05		9.18576668e+32		3.52681748e+32		1.41933487e+14		 
7.84000000e+05		8.94513044e+32		3.57028851e+32		1.40914236e+14		 
7.88000000e+05		8.70575204e+32		3.61388970e+32		1.39900312e+14		 
7.92000000e+05		8.46764326e+32		3.65761856e+32		1.38891766e+14		 
7.96000000e+05		8.23081533e+32		3.70147263e+32		1.37888645e+14		 
8.00000000e+05		7.99527887e+32		3.74544945e+32		1.36890995e+14		 
8.04000000e+05		7.76104394e+32		3.78954659e+32		1.35898857e+14		 
8.08000000e+05		7.52812002e+32		3.83376163e+32		1.34912272e+14		 
8.12000000e+05		7.29651608e+32		3.87809217e+32		1.33931279e+14		 
8.16000000e+05		7.06648023e+32		3.92248924e+32		1.32662622e+14		 
8.20000000e+05		6.83834162e+32		3.96688798e+32		1.31356607e+14		 
8.24000000e+05		6.61213411e+32		4.01128031e+32		1.30061647e+14		 
8.28000000e+05		6.38786303e+32		4.05566354e+32		1.28777772e+14		 
8.32000000e+05		6.16553278e+32		4.10003502e+32		1.27505008e+14		 
8.36000000e+05		5.94514680e+32		4.14439217e+32		1.26243374e+14		 
8.40000000e+05		5.72670766e+32		4.18873246e+32		1.24992885e+14		 
8.44000000e+05		5.51021706e+32		4.23305342e+32		1.23753551e+14		 
8.48000000e+05		5.29567587e+32		4.27735263e+32		1.22525376e+14		 
8.52000000e+05		5.08308417e+32		4.32162774e+32		1.21308362e+14		 
8.56000000e+05		4.87244126e+32		4.36587644e+32		1.20102504e+14		 
8.60000000e+05		4.66374570e+32		4.41009648e+32		1.18907794e+14		 
8.64000000e+05		4.45699535e+32		4.45428565e+32		1.17724219e+14		 
8.68000000e+05		4.25232090e+32		4.49841278e+32		1.16324092e+14		 
8.72000000e+05		4.05029682e+32		4.54234993e+32		1.14656883e+14		 
8.76000000e+05		3.85109153e+32		4.58605635e+32		1.13012936e+14		 
8.80000000e+05		3.65468775e+32		4.62953125e+32		1.11392109e+14		 
8.84000000e+05		3.46106703e+32		4.67277390e+32		1.09794249e+14		 
8.88000000e+05		3.27020982e+32		4.71578370e+32		1.08219195e+14		 
8.92000000e+05		3.08209552e+32		4.75856015e+32		1.06666777e+14		 
8.96000000e+05		2.89670260e+32		4.80110284e+32		1.05136818e+14		 
9.00000000e+05		2.71400863e+32		4.84341146e+32		1.03629131e+14		 
9.04000000e+05		2.53399036e+32		4.88548579e+32		1.02143526e+14		 
9.08000000e+05		2.35662378e+32		4.92732570e+32		1.00679803e+14		 
9.12000000e+05		2.18239791e+32		4.96880823e+32		9.85927924e+13		 
9.16000000e+05		2.01211025e+32		5.00973533e+32		9.63607892e+13		 
9.20000000e+05		1.84580416e+32		5.05008712e+32		9.41809734e+13		 
9.24000000e+05		1.68340787e+32		5.08987094e+32		9.20524043e+13		 
9.28000000e+05		1.52484898e+32		5.12909420e+32		8.99741329e+13		 
9.32000000e+05		1.37005465e+32		5.16776436e+32		8.79452045e+13		 
9.36000000e+05		1.21895172e+32		5.20588893e+32		8.59646604e+13		 
9.40000000e+05		1.07146695e+32		5.24347542e+32		8.40315403e+13		 
9.44000000e+05		9.28538872e+31		5.28026983e+32		8.08885778e+13		 
9.48000000e+05		7.91591496e+31		5.31588895e+32		7.75360841e+13		 
9.52000000e+05		6.60585487e+31		5.35032261e+32		7.43290360e+13		 
9.56000000e+05		5.35281862e+31		5.38361217e+32		7.12615831e+13		 
9.60000000e+05		4.15447742e+31		5.41579782e+32		6.83280246e+13		 
9.64000000e+05		3.11798990e+31		5.44392903e+32		4.73380298e+13		 
9.68000000e+05		2.34595703e+31		5.46515535e+32		4.32381965e+13		 
9.72000000e+05		1.65468591e+31		5.48441110e+32		3.82999853e+13		 
9.76000000e+05		1.06596723e+31		5.50102993e+32		3.16630739e+13		 
9.80000000e+05		6.63783284e+30		5.51252834e+32		2.02688303e+13		 
9.84000000e+05		4.60163428e+30		5.51843157e+32		8.22807046e+12		 
9.88000000e+05		3.53232552e+30		5.52158529e+32		5.24213419e+12		 
9.92000000e+05		2.81763064e+30		5.52372772e+32		3.67940962e+12		 
9.96000000e+05		2.30937656e+30		5.52527614e+32		2.68131619e+12		 
1.00000000e+06		1.93815651e+30		5.52642545e+32		1.99026316e+12		 
1.00400000e+06		1.66304107e+30		5.52729101e+32		1.49566196e+12		 
1.00800000e+06		1.45677961e+30		5.52795042e+32		1.13526463e+12		 
1.01200000e+06		1.29985810e+30		5.52846018e+32		8.78426299e+11		 
1.01600000e+06		1.17734244e+30		5.52886457e+32		7.03385890e+11		 
1.02000000e+06		1.07658901e+30		5.52920251e+32		6.04568652e+11		 
1.02400000e+06		9.87017607e+29		5.52950784e+32		5.59925782e+11		 
1.02800000e+06		9.04723153e+29		5.52979286e+32		5.18666975e+11		 
1.03200000e+06		8.29179696e+29		5.53005869e+32		4.79783915e+11		 
1.03600000e+06		7.59780910e+29		5.53030678e+32		4.44583807e+11		 
1.04000000e+06		6.95986137e+29		5.53053847e+32		4.11997709e+11		 
1.04400000e+06		6.37339891e+29		5.53075482e+32		3.81786459e+11		 
1.04800000e+06		5.83426534e+29		5.53095685e+32		3.53771068e+11		 
1.05200000e+06		5.33864644e+29		5.53114549e+32		3.27806957e+11		 
1.05600000e+06		4.88305284e+29		5.53132161e+32		3.03714397e+11		 
1.06000000e+06		4.46429213e+29		5.53148601e+32		2.81350258e+11		 
1.06400000e+06		4.07943550e+29		5.53163945e+32		2.60578450e+11		 
1.06800000e+06		3.72580714e+29		5.53178262e+32		2.41297014e+11		 
1.07200000e+06		3.40092773e+29		5.53191617e+32		2.23387532e+11		 
1.07600000e+06		3.10252149e+29		5.53204073e+32		2.06764847e+11		 
1.08000000e+06		2.82850501e+29		5.53215685e+32		1.91312726e+11		 
1.08400000e+06		2.57695635e+29		5.53226508e+32		1.76954445e+11		 
1.08800000e+06		2.34611316e+29		5.53236590e+32		1.63607116e+11		 
1.09200000e+06		2.13434821e+29		5.53245980e+32		1.51216250e+11		 
1.09600000e+06		1.94015541e+29		5.53254719e+32		1.39694521e+11		 
1.10000000e+06		1.76216562e+29		5.53262850e+32		1.28987922e+11		 
1.10400000e+06		1.59909938e+29		5.53270411e+32		1.19040536e+11		 
1.10800000e+06		1.44978437e+29		5.53277437e+32		1.09794771e+11		 
1.11200000e+06		1.31313547e+29		5.53283963e+32		1.01214735e+11		 
1.11600000e+06		1.18814745e+29		5.53290020e+32		9.32411935e+10		 
1.12000000e+06		1.07390203e+29		5.53295638e+32		8.58420588e+10		 
1.12400000e+06		9.69545097e+28		5.53300846e+32		7.89642676e+10		 
1.12800000e+06		8.74291845e+28		5.53305668e+32		7.25853555e+10		 
1.13200000e+06		7.87412257e+28		5.53310131e+32		6.66705077e+10		 
1.13600000e+06		7.08236088e+28		5.53314257e+32		6.11780173e+10		 
1.14000000e+06		6.36145880e+28		5.53318068e+32		5.60883479e+10		 
1.14400000e+06		5.70566892e+28		5.53321586e+32		5.13724188e+10		 
1.14800000e+06		5.10969591e+28		5.53324828e+32		4.70037559e+10		 
1.15200000e+06		4.56865099e+28		5.53327813e+32		4.29595251e+10		 
1.15600000e+06		4.07801384e+28		5.53330560e+32		3.92155965e+10		 
1.16000000e+06		3.63361781e+28		5.53333082e+32		3.57563934e+10		 
1.16400000e+06		3.23159230e+28		5.53335397e+32		3.25595838e+10		 
1.16800000e+06		2.86838485e+28		5.53337517e+32		2.96051496e+10		 
1.17200000e+06		2.54071322e+28		5.53339457e+32		2.68805986e+10		 
1.17600000e+06		2.24553634e+28		5.53341229e+32		2.43688050e+10		 
1.18000000e+06		1.98005080e+28		5.53342845e+32		2.20566227e+10		 
